Time[s] CO2_smooth[ppm] dCO2_dt[ppm/s] d2CO2_dt2[ppm/s^2]
0 1033 nan nan
1 1049 nan nan
2 1063 13 -2
3 1077 14 0.5
4 1090 12.5 -1.25
5 1102 11.5 -1
6 1114 12 0.25
7 1125 10.5 -1.25
8 1136 11 0.25
9 1146 9.5 -1.25
10 1155 8.5 -1
11 1163 7.5 -1
12 1170 6.5 -1
13 1176 5.5 -1
14 1181 4.5 -1
15 1187 6.5 1.5
16 1193 6 -0.25
17 1199 6 0
18 1205 6 0
19 1211 6 0
20 1217 6 0
21 1224 7.5 1.25
22 1230 5.5 -1.5
23 1237 7.5 1.5
24 1244 7 -0.25
25 1251 7 0
26 1257 5.5 -1.25
27 1264 7.5 1.5
28 1270 5.5 -1.5
29 1274 3 -2.25
30 1278 4 0.5
31 1283 5.5 1.25
32 1290 8 2.25
33 1296 5.5 -1.75
34 1300 3 -2.25
35 1302 1 -2
36 1303 0.5 -0.75
37 1306 4 2.75
38 1312 7.5 3.25
39 1321 10.5 3
40 1329 7.5 -2
41 1336 6.5 -1
42 1341 4 -2.25
43 1345 3.5 -0.75
44 1348 2.5 -1
45 1349 0 -2.25
46 1349 -0.5 -0.75
47 1350 1.5 1.5
48 1351 1 -0.25
49 1352 1 0
50 1353 1 0
51 1354 1 0
52 1355 1 0
53 1357 2.5 1.25
54 1359 2 -0.25
55 1360 0.5 -1.25
56 1362 2.5 1.5
57 1364 2 -0.25
58 1366 2 0
59 1368 2 0
60 1370 2 0
61 1372 2 0
62 1373 0.5 -1.25
63 1375 2.5 1.5
64 1377 2 -0.25
65 1380 3.5 1.25
66 1382 1.5 -1.5
67 1384 2 0.25
68 1387 3.5 1.25
69 1389 1.5 -1.5
70 1391 2 0.25
71 1394 3.5 1.25
72 1396 1.5 -1.5
73 1398 2 0.25
74 1400 2 0
75 1402 2 0
76 1404 2 0
77 1406 2 0
78 1408 2 0
79 1411 3.5 1.25
80 1413 1.5 -1.5
81 1415 2 0.25
82 1415 -1 -2.5
83 1417 3 3
84 1419 2 -0.5
85 1421 2 0
86 1423 2 0
87 1425 2 0
88 1428 3.5 1.25
89 1430 1.5 -1.5
90 1433 3.5 1.5
91 1435 1.5 -1.5
92 1438 3.5 1.5
93 1440 1.5 -1.5
94 1443 3.5 1.5
95 1445 1.5 -1.5
96 1448 3.5 1.5
97 1450 1.5 -1.5
98 1453 3.5 1.5
99 1455 1.5 -1.5
100 1457 2 0.25
101 1459 2 0
102 1461 2 0
103 1463 2 0
104 1465 2 0
105 1467 2 0
106 1469 2 0
107 1472 3.5 1.25
108 1474 1.5 -1.5
109 1476 2 0.25
110 1478 2 0
111 1480 2 0
112 1483 3.5 1.25
113 1485 1.5 -1.5
114 1487 2 0.25
115 1489 2 0
116 1491 2 0
117 1492 0.5 -1.25
118 1494 2.5 1.5
119 1496 2 -0.25
120 1498 2 0
121 1500 2 0
122 1502 2 0
123 1504 2 0
124 1506 2 0
125 1507 0.5 -1.25
126 1509 2.5 1.5
127 1511 2 -0.25
128 1513 2 0
129 1515 2 0
130 1518 3.5 1.25
131 1520 1.5 -1.5
132 1522 2 0.25
133 1524 2 0
134 1526 2 0
135 1528 2 0
136 1530 2 0
137 1531 0.5 -1.25
138 1533 2.5 1.5
139 1535 2 -0.25
140 1537 2 0
141 1539 2 0
142 1541 2 0
143 1543 2 0
144 1545 2 0
145 1547 2 0
146 1549 2 0
147 1550 0.5 -1.25
148 1552 2.5 1.5
149 1554 2 -0.25
150 1555 0.5 -1.25
151 1557 2.5 1.5
152 1559 2 -0.25
153 1560 0.5 -1.25
154 1562 2.5 1.5
155 1563 0.5 -1.5
156 1565 2.5 1.5
157 1566 0.5 -1.5
158 1568 2.5 1.5
159 1569 0.5 -1.5
160 1571 2.5 1.5
161 1572 0.5 -1.5
162 1574 2.5 1.5
163 1576 2 -0.25
164 1578 2 0
165 1580 2 0
166 1582 2 0
167 1583 0.5 -1.25
168 1585 2.5 1.5
169 1587 2 -0.25
170 1589 2 0
171 1590 0.5 -1.25
172 1592 2.5 1.5
173 1594 2 -0.25
174 1595 0.5 -1.25
175 1597 2.5 1.5
176 1598 0.5 -1.5
177 1600 2.5 1.5
178 1601 0.5 -1.5
179 1603 2.5 1.5
180 1604 0.5 -1.5
181 1605 1 0.25
182 1607 2.5 1.25
183 1608 0.5 -1.5
184 1609 1 0.25
185 1611 2.5 1.25
186 1613 2 -0.25
187 1615 2 0
188 1617 2 0
189 1619 2 0
190 1620 0.5 -1.25
191 1622 2.5 1.5
192 1624 2 -0.25
193 1625 0.5 -1.25
194 1625 -0.5 -1
195 1627 3 2.75
196 1629 2 -0.5
197 1630 0.5 -1.25
198 1632 2.5 1.5
199 1633 0.5 -1.5
200 1635 2.5 1.5
201 1636 0.5 -1.5
202 1637 1 0.25
203 1639 2.5 1.25
204 1640 0.5 -1.5
205 1642 2.5 1.5
206 1643 0.5 -1.5
207 1644 1 0.25
208 1646 2.5 1.25
209 1647 0.5 -1.5
210 1648 1 0.25
211 1649 1 0
212 1651 2.5 1.25
213 1652 0.5 -1.5
214 1653 1 0.25
215 1654 1 0
216 1656 2.5 1.25
217 1657 0.5 -1.5
218 1658 1 0.25
219 1660 2.5 1.25
220 1661 0.5 -1.5
221 1663 2.5 1.5
222 1664 0.5 -1.5
223 1666 2.5 1.5
224 1667 0.5 -1.5
225 1669 2.5 1.5
226 1670 0.5 -1.5
227 1672 2.5 1.5
228 1674 2 -0.25
229 1675 0.5 -1.25
230 1677 2.5 1.5
231 1679 2 -0.25
232 1681 2 0
233 1682 0.5 -1.25
234 1684 2.5 1.5
235 1685 0.5 -1.5
236 1687 2.5 1.5
237 1688 0.5 -1.5
238 1689 1 0.25
239 1691 2.5 1.25
240 1692 0.5 -1.5
241 1694 2.5 1.5
242 1695 0.5 -1.5
243 1697 2.5 1.5
244 1698 0.5 -1.5
245 1700 2.5 1.5
246 1701 0.5 -1.5
247 1703 2.5 1.5
248 1704 0.5 -1.5
249 1706 2.5 1.5
250 1707 0.5 -1.5
251 1709 2.5 1.5
252 1710 0.5 -1.5
253 1712 2.5 1.5
254 1713 0.5 -1.5
255 1714 1 0.25
256 1715 1 0
257 1717 2.5 1.25
258 1718 0.5 -1.5
259 1719 1 0.25
260 1721 2.5 1.25
261 1722 0.5 -1.5
262 1723 1 0.25
263 1725 2.5 1.25
264 1726 0.5 -1.5
265 1728 2.5 1.5
266 1730 2 -0.25
267 1731 0.5 -1.25
268 1733 2.5 1.5
269 1734 0.5 -1.5
270 1736 2.5 1.5
271 1738 2 -0.25
272 1739 0.5 -1.25
273 1741 2.5 1.5
274 1742 0.5 -1.5
275 1744 2.5 1.5
276 1745 0.5 -1.5
277 1747 2.5 1.5
278 1748 0.5 -1.5
279 1749 1 0.25
280 1751 2.5 1.25
281 1753 2 -0.25
282 1754 0.5 -1.25
283 1756 2.5 1.5
284 1758 2 -0.25
285 1760 2 0
286 1761 0.5 -1.25
287 1763 2.5 1.5
288 1764 0.5 -1.5
289 1766 2.5 1.5
290 1768 2 -0.25
291 1770 2 0
292 1771 0.5 -1.25
293 1773 2.5 1.5
294 1775 2 -0.25
295 1777 2 0
296 1779 2 0
297 1780 0.5 -1.25
298 1782 2.5 1.5
299 1784 2 -0.25
300 1786 2 0
301 1787 0.5 -1.25
302 1789 2.5 1.5
303 1791 2 -0.25
304 1791 -1 -2.5
305 1792 1.5 1.75
306 1794 2.5 1
307 1796 2 -0.25
308 1798 2 0
309 1799 0.5 -1.25
310 1801 2.5 1.5
311 1803 2 -0.25
312 1804 0.5 -1.25
313 1806 2.5 1.5
314 1808 2 -0.25
315 1809 0.5 -1.25
316 1811 2.5 1.5
317 1813 2 -0.25
318 1815 2 0
319 1817 2 0
320 1819 2 0
321 1821 2 0
322 1822 0.5 -1.25
323 1824 2.5 1.5
324 1826 2 -0.25
325 1827 0.5 -1.25
326 1829 2.5 1.5
327 1830 0.5 -1.5
328 1832 2.5 1.5
329 1834 2 -0.25
330 1835 0.5 -1.25
331 1837 2.5 1.5
332 1839 2 -0.25
333 1840 0.5 -1.25
334 1842 2.5 1.5
335 1844 2 -0.25
336 1845 0.5 -1.25
337 1847 2.5 1.5
338 1848 0.5 -1.5
339 1850 2.5 1.5
340 1852 2 -0.25
341 1854 2 0
342 1855 0.5 -1.25
343 1857 2.5 1.5
344 1859 2 -0.25
345 1860 0.5 -1.25
346 1862 2.5 1.5
347 1864 2 -0.25
348 1866 2 0
349 1868 2 0
350 1869 0.5 -1.25
351 1871 2.5 1.5
352 1873 2 -0.25
353 1875 2 0
354 1877 2 0
355 1879 2 0
356 1881 2 0
357 1882 0.5 -1.25
358 1884 2.5 1.5
359 1886 2 -0.25
360 1887 0.5 -1.25
361 1889 2.5 1.5
362 1891 2 -0.25
363 1893 2 0
364 1896 3.5 1.25
365 1898 1.5 -1.5
366 1900 2 0.25
367 1902 2 0
368 1904 2 0
369 1906 2 0
370 1908 2 0
371 1910 2 0
372 1912 2 0
373 1914 2 0
374 1916 2 0
375 1919 3.5 1.25
376 1921 1.5 -1.5
377 1924 3.5 1.5
378 1926 1.5 -1.5
379 1929 3.5 1.5
380 1931 1.5 -1.5
381 1933 2 0.25
382 1936 3.5 1.25
383 1938 1.5 -1.5
384 1940 2 0.25
385 1943 3.5 1.25
386 1945 1.5 -1.5
387 1947 2 0.25
388 1949 2 0
389 1952 3.5 1.25
390 1954 1.5 -1.5
391 1956 2 0.25
392 1958 2 0
393 1960 2 0
394 1962 2 0
395 1964 2 0
396 1966 2 0
397 1968 2 0
398 1970 2 0
399 1972 2 0
400 1974 2 0
401 1976 2 0
402 1978 2 0
403 1981 3.5 1.25
404 1983 1.5 -1.5
405 1985 2 0.25
406 1987 2 0
407 1989 2 0
408 1991 2 0
409 1993 2 0
410 1995 2 0
411 1998 3.5 1.25
412 2000 1.5 -1.5
413 2002 2 0.25
414 2005 3.5 1.25
415 2007 1.5 -1.5
416 2007 -1 -2.25
417 2010 4.5 4.25
418 2012 1.5 -2
419 2015 3.5 1.5
420 2017 1.5 -1.5
421 2020 3.5 1.5
422 2023 3 -0.25
423 2025 1.5 -1.25
424 2028 3.5 1.5
425 2031 3 -0.25
426 2034 3 0
427 2036 1.5 -1.25
428 2039 3.5 1.5
429 2042 3 -0.25
430 2044 1.5 -1.25
431 2047 3.5 1.5
432 2050 3 -0.25
433 2052 1.5 -1.25
434 2055 3.5 1.5
435 2058 3 -0.25
436 2060 1.5 -1.25
437 2063 3.5 1.5
438 2066 3 -0.25
439 2069 3 0
440 2072 3 0
441 2074 1.5 -1.25
442 2077 3.5 1.5
443 2079 1.5 -1.5
444 2082 3.5 1.5
445 2084 1.5 -1.5
446 2087 3.5 1.5
447 2089 1.5 -1.5
448 2092 3.5 1.5
449 2094 1.5 -1.5
450 2097 3.5 1.5
451 2099 1.5 -1.5
452 2102 3.5 1.5
453 2104 1.5 -1.5
454 2107 3.5 1.5
455 2109 1.5 -1.5
456 2112 3.5 1.5
457 2115 3 -0.25
458 2117 1.5 -1.25
459 2120 3.5 1.5
460 2123 3 -0.25
461 2126 3 0
462 2129 3 0
463 2132 3 0
464 2135 3 0
465 2138 3 0
466 2141 3 0
467 2143 1.5 -1.25
468 2146 3.5 1.5
469 2149 3 -0.25
470 2152 3 0
471 2155 3 0
472 2158 3 0
473 2160 1.5 -1.25
474 2163 3.5 1.5
475 2166 3 -0.25
476 2169 3 0
477 2171 1.5 -1.25
478 2174 3.5 1.5
479 2177 3 -0.25
480 2180 3 0
481 2182 1.5 -1.25
482 2185 3.5 1.5
483 2188 3 -0.25
484 2191 3 0
485 2194 3 0
486 2197 3 0
487 2199 1.5 -1.25
488 2202 3.5 1.5
489 2205 3 -0.25
490 2207 1.5 -1.25
491 2210 3.5 1.5
492 2212 1.5 -1.5
493 2215 3.5 1.5
494 2217 1.5 -1.5
495 2220 3.5 1.5
496 2223 3 -0.25
497 2226 3 0
498 2229 3 0
499 2232 3 0
500 2236 4.5 1.25
501 2239 2.5 -1.5
502 2242 3 0.25
503 2245 3 0
504 2247 1.5 -1.25
505 2250 3.5 1.5
506 2253 3 -0.25
507 2256 3 0
508 2259 3 0
509 2262 3 0
510 2265 3 0
511 2267 1.5 -1.25
512 2270 3.5 1.5
513 2273 3 -0.25
514 2276 3 0
515 2279 3 0
516 2282 3 0
517 2285 3 0
518 2288 3 0
519 2292 4.5 1.25
520 2295 2.5 -1.5
521 2298 3 0.25
522 2301 3 0
523 2304 3 0
524 2307 3 0
525 2309 1.5 -1.25
526 2312 3.5 1.5
527 2315 3 -0.25
528 2315 -1.5 -3.75
529 2317 3 3.25
530 2320 3.5 0.75
531 2323 3 -0.25
532 2326 3 0
533 2329 3 0
534 2333 4.5 1.25
535 2336 2.5 -1.5
536 2339 3 0.25
537 2342 3 0
538 2345 3 0
539 2347 1.5 -1.25
540 2350 3.5 1.5
541 2353 3 -0.25
542 2356 3 0
543 2359 3 0
544 2362 3 0
545 2364 1.5 -1.25
546 2367 3.5 1.5
547 2370 3 -0.25
548 2373 3 0
549 2377 4.5 1.25
550 2380 2.5 -1.5
551 2383 3 0.25
552 2386 3 0
553 2389 3 0
554 2393 4.5 1.25
555 2396 2.5 -1.5
556 2400 4.5 1.5
557 2403 2.5 -1.5
558 2407 4.5 1.5
559 2410 2.5 -1.5
560 2414 4.5 1.5
561 2417 2.5 -1.5
562 2421 4.5 1.5
563 2424 2.5 -1.5
564 2428 4.5 1.5
565 2431 2.5 -1.5
566 2435 4.5 1.5
567 2438 2.5 -1.5
568 2442 4.5 1.5
569 2445 2.5 -1.5
570 2449 4.5 1.5
571 2452 2.5 -1.5
572 2456 4.5 1.5
573 2459 2.5 -1.5
574 2463 4.5 1.5
575 2466 2.5 -1.5
576 2469 3 0.25
577 2472 3 0
578 2475 3 0
579 2478 3 0
580 2481 3 0
581 2485 4.5 1.25
582 2488 2.5 -1.5
583 2492 4.5 1.5
584 2496 4 -0.25
585 2499 2.5 -1.25
586 2503 4.5 1.5
587 2506 2.5 -1.5
588 2510 4.5 1.5
589 2513 2.5 -1.5
590 2517 4.5 1.5
591 2521 4 -0.25
592 2524 2.5 -1.25
593 2528 4.5 1.5
594 2532 4 -0.25
595 2536 4 0
596 2539 2.5 -1.25
597 2543 4.5 1.5
598 2547 4 -0.25
599 2551 4 0
