Time[s] CO2_smooth[ppm] dCO2_dt[ppm/s] d2CO2_dt2[ppm/s^2] stim_f[Hz]
0 519 nan nan 0
1 519 nan nan 0
2 519 0 0 0
3 524 7.5 6.25 0
4 540 21.5 12.5 0
5 576 46 22.25 0
6 766 267 187.5 0
7 1065 353.5 97.75 0
8 1238 110 -184.75 0
9 1378 123.5 -9.75 0
10 1480 83 -39.25 0
11 1551 55.5 -29.25 0
12 1606 47 -12.25 0
13 1651 40 -8.5 0
14 1690 36 -5 0
15 1724 31.5 -4.75 0
16 1755 29.5 -2.5 0
17 1782 25 -4.25 0
18 1807 24 -1.5 0
19 1831 23.5 -0.75 0
20 1853 21 -2.25 0
21 1875 22 0.5 0
22 1896 20.5 -1.25 0
23 1915 18 -2.25 0
24 1933 17.5 -0.75 0
25 1950 16.5 -1 0
26 1967 17 0.25 0
27 1984 17 0 0
28 2002 18.5 1.25 0
29 2021 19.5 1 0
30 2041 20.5 1 0
31 2059 17 -2.75 0
32 2075 15 -2 0
33 2090 14.5 -0.75 0
34 2105 15 0.25 0
35 2119 13.5 -1.25 0
36 2131 11 -2.25 0
37 2142 10.5 -0.75 0
38 2153 11 0.25 0
39 2164 11 0 0
40 2176 12.5 1.25 0
41 2189 13.5 1 0
42 2200 10 -2.75 0
43 2212 12.5 1.75 0
44 2223 10.5 -1.5 0
45 2233 9.5 -1 0
46 2242 8.5 -1 0
47 2251 9 0.25 0
48 2259 7.5 -1.25 0
49 2267 8 0.25 0
50 2276 9.5 1.25 0
51 2285 9 -0.25 0
52 2294 9 0 0
53 2303 9 0 0
54 2312 9 0 0
55 2320 7.5 -1.25 0
56 2325 3.5 -3.5 0
57 2328 2 -1.75 0
58 2330 1.5 -0.75 0
59 2331 0.5 -1 0
60 2332 1 0.25 0
61 2334 2.5 1.25 0
62 2336 2 -0.25 0
63 2338 2 0 0
64 2340 2 0 0
65 2342 2 0 0
66 2350 11 7.5 0
67 2366 20 8.5 0
68 2388 25 5.5 0
69 2404 13 -9 0
70 2413 5.5 -7.25 0
71 2414 -3 -8.25 0
72 2415 1 2 0
73 2416 1 0 0
74 2418 2.5 1.25 0
75 2420 2 -0.25 0
76 2422 2 0 0
77 2424 2 0 0
78 2426 2 0 0
79 2428 2 0 0
80 2430 2 0 0
81 2432 2 0 0
82 2435 3.5 1.25 0
83 2437 1.5 -1.5 0
84 2440 3.5 1.5 0
85 2442 1.5 -1.5 0
86 2445 3.5 1.5 0
87 2448 3 -0.25 0
88 2451 3 0 0
89 2454 3 0 0
90 2457 3 0 0
91 2460 3 0 100
92 2463 3 0 100.5
93 2466 3 0 101
94 2469 3 0 101.5
95 2472 3 0 102
96 2472 -1.5 -3.75 102.5
97 2475 4.5 4.5 103
98 2478 3 -0.75 103.5
99 2481 3 0 104
100 2484 3 0 104.5
101 2488 4.5 1.25 105
102 2491 2.5 -1.5 105.5
103 2494 3 0.25 106
104 2498 4.5 1.25 106.5
105 2501 2.5 -1.5 107
106 2504 3 0.25 107.5
107 2507 3 0 108
108 2511 4.5 1.25 108.5
109 2514 2.5 -1.5 109
110 2517 3 0.25 109.5
111 2520 3 0 110
112 2524 4.5 1.25 110.5
113 2527 2.5 -1.5 111
114 2530 3 0.25 111.5
115 2533 3 0 112
116 2537 4.5 1.25 112.5
117 2541 4 -0.25 113
118 2544 2.5 -1.25 113.5
119 2548 4.5 1.5 114
120 2551 2.5 -1.5 114.5
121 2555 4.5 1.5 115
122 2558 2.5 -1.5 115.5
123 2562 4.5 1.5 116
124 2565 2.5 -1.5 116.5
125 2569 4.5 1.5 117
126 2572 2.5 -1.5 117.5
127 2576 4.5 1.5 118
128 2580 4 -0.25 118.5
129 2583 2.5 -1.25 119
130 2587 4.5 1.5 119.5
131 2590 2.5 -1.5 120
132 2594 4.5 1.5 120.5
133 2597 2.5 -1.5 121
134 2601 4.5 1.5 121.5
135 2604 2.5 -1.5 122
136 2608 4.5 1.5 122.5
137 2611 2.5 -1.5 123
138 2615 4.5 1.5 123.5
139 2619 4 -0.25 124
140 2622 2.5 -1.25 124.5
141 2626 4.5 1.5 125
142 2630 4 -0.25 125.5
143 2633 2.5 -1.25 126
144 2637 4.5 1.5 126.5
145 2640 2.5 -1.5 127
146 2644 4.5 1.5 127.5
147 2647 2.5 -1.5 128
148 2651 4.5 1.5 128.5
149 2654 2.5 -1.5 129
150 2658 4.5 1.5 129.5
151 2662 4 -0.25 130
152 2665 2.5 -1.25 130.5
153 2669 4.5 1.5 131
154 2673 4 -0.25 131.5
155 2677 4 0 132
156 2680 2.5 -1.25 132.5
157 2684 4.5 1.5 133
158 2688 4 -0.25 133.5
159 2691 2.5 -1.25 134
160 2695 4.5 1.5 134.5
161 2699 4 -0.25 135
162 2702 2.5 -1.25 135.5
163 2706 4.5 1.5 136
164 2709 2.5 -1.5 136.5
165 2712 3 0.25 137
166 2716 4.5 1.25 137.5
167 2719 2.5 -1.5 138
168 2723 4.5 1.5 138.5
169 2727 4 -0.25 139
170 2731 4 0 139.5
171 2735 4 0 140
172 2739 4 0 140.5
173 2743 4 0 141
174 2746 2.5 -1.25 141.5
175 2750 4.5 1.5 142
176 2753 2.5 -1.5 142.5
177 2757 4.5 1.5 143
178 2760 2.5 -1.5 143.5
179 2764 4.5 1.5 144
180 2767 2.5 -1.5 144.5
181 2771 4.5 1.5 145
182 2775 4 -0.25 145.5
183 2779 4 0 146
184 2782 2.5 -1.25 146.5
185 2786 4.5 1.5 147
186 2790 4 -0.25 147.5
187 2794 4 0 148
188 2798 4 0 148.5
189 2802 4 0 149
190 2806 4 0 149.5
191 2809 2.5 -1.25 150
192 2813 4.5 1.5 150.5
193 2817 4 -0.25 151
194 2821 4 0 151.5
195 2825 4 0 152
196 2829 4 0 152.5
197 2834 5.5 1.25 153
198 2838 3.5 -1.5 153.5
199 2842 4 0.25 154
200 2847 5.5 1.25 154.5
201 2851 3.5 -1.5 155
202 2855 4 0.25 155.5
203 2859 4 0 156
204 2863 4 0 156.5
205 2867 4 0 157
206 2871 4 0 157.5
207 2875 4 0 158
208 2879 4 0 158.5
209 2883 4 0 159
210 2887 4 0 159.5
211 2887 -2 -5 160
212 2892 7.5 7.25 160.5
213 2896 3.5 -2.5 161
214 2901 5.5 1.5 161.5
215 2905 3.5 -1.5 162
216 2909 4 0.25 162.5
217 2913 4 0 163
218 2918 5.5 1.25 163.5
219 2922 3.5 -1.5 164
220 2926 4 0.25 164.5
221 2930 4 0 165
222 2934 4 0 165.5
223 2939 5.5 1.25 166
224 2943 3.5 -1.5 166.5
225 2947 4 0.25 167
226 2952 5.5 1.25 167.5
227 2956 3.5 -1.5 168
228 2961 5.5 1.5 168.5
229 2966 5 -0.25 169
230 2970 3.5 -1.25 169.5
231 2975 5.5 1.5 170
232 2979 3.5 -1.5 170.5
233 2983 4 0.25 171
234 2988 5.5 1.25 171.5
235 2992 3.5 -1.5 172
236 2997 5.5 1.5 172.5
237 3001 3.5 -1.5 173
238 3005 4 0.25 173.5
239 3010 5.5 1.25 174
240 3015 5 -0.25 174.5
241 3020 5 0 175
242 3025 5 0 175.5
243 3029 3.5 -1.25 176
244 3034 5.5 1.5 176.5
245 3039 5 -0.25 177
246 3044 5 0 177.5
247 3049 5 0 178
248 3054 5 0 178.5
249 3059 5 0 179
250 3064 5 0 179.5
251 3068 3.5 -1.25 180
252 3073 5.5 1.5 180.5
253 3078 5 -0.25 181
254 3083 5 0 181.5
255 3087 3.5 -1.25 182
256 3092 5.5 1.5 182.5
257 3097 5 -0.25 183
258 3103 6.5 1.25 183.5
259 3108 4.5 -1.5 184
260 3113 5 0.25 184.5
261 3119 6.5 1.25 185
262 3124 4.5 -1.5 185.5
263 3129 5 0.25 186
264 3134 5 0 186.5
265 3139 5 0 187
266 3144 5 0 187.5
267 3149 5 0 188
268 3154 5 0 188.5
269 3159 5 0 189
270 3164 5 0 189.5
271 3169 5 0 190
272 3174 5 0 190.5
273 3179 5 0 191
274 3184 5 0 191.5
275 3190 6.5 1.25 192
276 3195 4.5 -1.5 192.5
277 3201 6.5 1.5 193
278 3206 4.5 -1.5 193.5
279 3212 6.5 1.5 194
280 3217 4.5 -1.5 194.5
281 3223 6.5 1.5 195
282 3228 4.5 -1.5 195.5
283 3234 6.5 1.5 196
284 3240 6 -0.25 196.5
285 3245 4.5 -1.25 197
286 3251 6.5 1.5 197.5
287 3256 4.5 -1.5 198
288 3262 6.5 1.5 198.5
289 3267 4.5 -1.5 199
290 3272 5 0.25 199.5
291 3277 5 0 200
292 3282 5 0 200.5
293 3288 6.5 1.25 201
294 3293 4.5 -1.5 201.5
295 3299 6.5 1.5 202
296 3304 4.5 -1.5 202.5
297 3309 5 0.25 203
298 3315 6.5 1.25 203.5
299 3320 4.5 -1.5 204
300 3326 6.5 1.5 204.5
301 3332 6 -0.25 205
302 3337 4.5 -1.25 205.5
303 3343 6.5 1.5 206
304 3349 6 -0.25 206.5
305 3355 6 0 207
306 3361 6 0 207.5
307 3367 6 0 208
308 3385 24 15 208.5
309 3415 36 12 209
310 3456 46.5 10.75 209.5
311 3483 20 -20.25 210
312 3497 7.5 -12.75 210.5
313 3498 -5.5 -13 211
314 3499 1 3.25 211.5
315 3501 2.5 1.25 212
316 3503 2 -0.25 212.5
317 3504 0.5 -1.25 213
318 3506 2.5 1.5 213.5
319 3508 2 -0.25 214
320 3510 2 0 214.5
321 3519 12.5 8.75 215
322 3534 18 5.75 215.5
323 3555 24 6 216
324 3571 13.5 -7.75 216.5
325 3571 -8 -18.75 217
326 3579 12 14 217.5
327 3581 -1 -9.5 218
328 3582 0.5 0.25 218.5
329 3583 1 0.25 219
330 3585 2.5 1.25 219.5
331 3587 2 -0.25 220
332 3589 2 0 220.5
333 3591 2 0 221
334 3593 2 0 221.5
335 3596 3.5 1.25 222
336 3599 3 -0.25 222.5
337 3602 3 0 223
338 3605 3 0 223.5
339 3608 3 0 224
340 3612 4.5 1.25 224.5
341 3624 16 9.75 225
342 3644 24 8 225.5
343 3674 35 10.5 226
344 3697 19.5 -11.25 226.5
345 3711 9.5 -9.5 227
346 3714 -2.5 -11.5 227.5
347 3716 1.5 1.5 228
348 3717 0.5 -1 228.5
349 3718 1 0.25 229
350 3719 1 0 229.5
351 3724 7 5 230
352 3735 14 6.5 230.5
353 3750 17 3.5 231
354 3764 13.5 -2.25 231.5
355 3775 9.5 -3.5 232
356 3781 3.5 -5.5 232.5
357 3784 1.5 -2.5 233
358 3786 1.5 -0.5 233.5
359 3787 0.5 -1 234
360 3788 1 0.25 234.5
361 3789 1 0 235
362 3791 2.5 1.25 235.5
363 3793 2 -0.25 236
364 3795 2 0 236.5
365 3798 3.5 1.25 237
366 3801 3 -0.25 237.5
367 3804 3 0 238
368 3814 13.5 8.75 238.5
369 3832 22 8.25 239
370 3855 25.5 4.25 239.5
371 3871 12.5 -10 240
372 3880 5.5 -7 240.5
373 3881 -3 -8.25 241
374 3886 7 7 241.5
375 3895 11 4 242
376 3907 13.5 2.75 242.5
377 3916 7.5 -4.5 243
378 3921 3 -4.25 243.5
379 3922 -1 -4 244
380 3924 2.5 2.25 244.5
381 3926 2 -0.25 245
382 3928 2 0 245.5
383 3930 2 0 246
384 3939 12.5 8.75 246.5
385 3955 19.5 7 247
386 3978 26.5 7 247.5
387 3995 14 -9.25 248
388 4005 6.5 -7.25 248.5
389 4007 -2 -8.25 249
390 4008 0.5 0.75 249.5
391 4009 1 0.25 250
392 4011 2.5 1.25 250.5
393 4013 2 -0.25 251
394 4015 2 0 251.5
395 4022 9.5 6.25 252
396 4035 16 6.25 252.5
397 4055 23.5 7.25 253
398 4071 14 -6.75 253.5
399 4082 8.5 -5.25 254
400 4087 2 -6.25 254.5
401 4095 9.5 5.25 255
402 4105 11 1.75 255.5
403 4115 10 -0.5 256
404 4123 7 -2.5 256.5
405 4126 0.5 -5.75 257
406 4128 1.5 0 257.5
407 4129 0.5 -1 258
408 4131 2.5 1.5 258.5
409 4133 2 -0.25 259
410 4141 11 7.5 259.5
411 4154 15.5 4.75 260
412 4174 23.5 7.5 260.5
413 4189 12.5 -8 261
414 4200 9 -3.75 261.5
415 4204 0.5 -7.75 262
416 4209 5.5 3 262.5
417 4216 8 2.25 263
418 4226 11.5 3.25 263.5
419 4233 5.5 -4.5 264
420 4237 2.5 -3 264.5
421 4238 -0.5 -3 265
422 4239 1 0.75 265.5
423 4241 2.5 1.25 266
424 4248 9.5 6 266.5
425 4262 17.5 7.5 267
426 4282 23 5.75 267.5
427 4297 12.5 -7.75 268
428 4305 4.5 -7.5 268.5
429 4310 3.5 -2 269
430 4318 9.5 4.5 269.5
431 4331 15.5 5.5 270
432 4341 8.5 -5 270.5
433 4347 4 -4.25 271
434 4349 0 -4 271.5
435 4354 6.5 4.75 272
436 4365 14 6.75 272.5
437 4380 17 3.5 273
438 4392 10.5 -4.75 273.5
439 4399 4.5 -5.5 274
440 4399 -3.5 -7.5 274.5
441 4401 3 4.25 275
442 4407 8 4.5 275.5
443 4417 12 4 276
444 4432 17.5 5.25 276.5
445 4446 13.5 -2.5 277
446 4458 11 -2.25 277.5
447 4466 6 -4.5 278
448 4472 5 -1.5 278.5
449 4476 3 -2 279
450 4478 1 -2 279.5
451 4479 0.5 -0.75 280
452 4485 8.5 6.5 280.5
453 4497 15 6.25 281
454 4516 22.5 7.25 281.5
455 4533 16 -4.25 282
456 4547 12.5 -3.25 282.5
457 4554 3.5 -8 283
458 4559 4 -0.75 283.5
459 4561 0.5 -3.25 284
460 4562 0.5 -0.5 284.5
461 4568 8.5 6.5 285
462 4579 13.5 5 285.5
463 4596 20 6.25 286
464 4610 12.5 -5.25 286.5
465 4620 8 -4.25 287
466 4626 4 -4 287.5
467 4634 9 3.5 288
468 4644 11 2 288.5
469 4653 8.5 -1.75 289
470 4659 4.5 -3.5 289.5
471 4664 4.5 -0.5 290
472 4673 11 5.25 290.5
473 4688 18 6.5 291
474 4702 13.5 -2.75 291.5
475 4712 8 -4.75 292
476 4716 1 -6.5 292.5
477 4718 1 -1 293
478 4719 0.5 -0.75 293.5
479 4725 8.5 6.5 294
480 4737 15 6.25 294.5
481 4754 19.5 4.75 295
482 4767 11 -6.25 295.5
483 4775 5.5 -5.25 296
484 4780 3.5 -2.5 296.5
485 4788 9.5 4.5 297
486 4802 17 6.75 297.5
487 4815 12.5 -2.75 298
488 4825 8.5 -3.5 298.5
489 4829 1 -6.75 299
490 4831 1 -1 299.5
491 4833 2 0.5 300
492 4835 2 0 300.5
493 4837 2 0 301
494 4839 2 0 301.5
495 4847 11 7.5 302
496 4863 20 8.5 302.5
497 4886 26.5 6.75 303
498 4907 20 -4.25 303.5
499 4923 13.5 -5.75 304
500 4933 7 -6.25 304.5
501 4939 4 -3.5 305
502 4943 3 -1.5 305.5
503 4945 1 -2 306
504 4950 6.5 4.25 306.5
505 4960 12.5 5.5 307
506 4975 17.5 5 307.5
507 4989 13.5 -2.5 308
508 5002 12.5 -1 308.5
509 5012 8.5 -3.5 309
510 5019 5.5 -3 309.5
511 5024 4 -1.75 310
512 5026 0.5 -3.25 310.5
513 5027 0.5 -0.5 311
514 5034 10 7.75 311.5
515 5047 16 6 312
516 5066 22 6 312.5
517 5080 11.5 -7.75 313
518 5089 6.5 -5 313.5
519 5091 -1.5 -7.5 314
520 5097 8 6.75 314.5
521 5109 15 6.5 315
522 5127 21 6 315.5
523 5142 13.5 -5.25 316
524 5153 9 -4.25 316.5
525 5157 0.5 -7.75 317
526 5160 2.5 0.5 317.5
527 5167 9 5.25 318
528 5180 16 6.5 318.5
529 5199 22 6 319
530 5213 11.5 -7.75 319.5
531 5222 6.5 -5 320
532 5224 -1.5 -7.5 320.5
533 5226 2 1.75 321
534 5228 2 0 321.5
535 5230 2 0 322
536 5239 12.5 8.75 322.5
537 5257 22.5 9.5 323
538 5281 27 5.25 323.5
539 5300 16.5 -7.75 324
540 5310 5.5 -10 324.5
541 5312 -2 -7.75 325
542 5318 8 7 325.5
543 5329 13.5 5.25 326
544 5344 17 3.75 326.5
545 5355 9 -6 327
546 5361 3.5 -5.25 327.5
547 5363 0 -3.75 328
548 5370 9.5 7.25 328.5
549 5383 16 6.25 329
550 5402 22 6 329.5
551 5416 11.5 -7.75 330
552 5425 6.5 -5 330.5
553 5427 -1.5 -7.5 331
554 5429 2 1.75 331.5
555 5431 2 0 332
556 5431 -1 -2.5 332.5
557 5433 3 3 333
558 5436 3.5 0.75 333.5
559 5446 13.5 8.5 334
560 5464 22 8.25 334.5
561 5491 31.5 9.25 335
562 5516 24 -4.75 335.5
563 5536 17.5 -5.75 336
564 5549 9.5 -7.5 336.5
565 5558 7 -3.25 337
566 5563 3 -4 337.5
567 5566 2 -1.5 338
568 5571 6 3 338.5
569 5582 14 7 339
570 5598 18.5 4.75 339.5
571 5612 13 -3.75 340
572 5619 3.5 -8.25 340.5
573 5622 1 -3.25 341
574 5627 6 3.5 341.5
575 5638 14 7 342
576 5653 17 3.5 342.5
577 5663 7.5 -7.25 343
578 5669 4 -3.75 343.5
579 5671 0 -4 344
580 5673 2 1 344.5
581 5676 3.5 1.25 345
582 5679 3 -0.25 345.5
583 5682 3 0 346
584 5694 16.5 11.25 346.5
585 5716 27 10.25 347
586 5746 34 7.5 347.5
587 5768 18 -12 348
588 5780 7 -10.5 348.5
589 5783 -1.5 -8.75 349
590 5784 0 -0.25 349.5
591 5786 2.5 1.75 350
592 5788 2 -0.25 350.5
593 5790 2 0 351
594 5793 3.5 1.25 351.5
595 5804 15 9.75 352
596 5823 23 8 352.5
597 5853 35.5 11.75 353
598 5877 21 -10.25 353.5
599 5895 15 -6 354
600 5905 6 -8.5 354.5
