Time[s] CO2_smooth[ppm] dCO2_dt[ppm/s] d2CO2_dt2[ppm/s^2] stim_f[Hz]
0 377 nan nan 0
1 376 nan nan 0
2 377 2 2 0
3 379 2.5 0.75 0
4 384 6.5 3.5 0
5 393 11 4.25 0
6 418 33 19 0
7 488 92.5 52.25 0
8 520 13 -58.75 0
9 543 18.5 -1.75 0
10 565 21.5 1 0
11 585 19 -2.25 0
12 626 51.5 26.75 0
13 738 147.5 83.5 0
14 842 100 -27.75 0
15 938 92 -8 0
16 1013 64.5 -24.25 0
17 1052 21 -39.75 0
18 1086 31.5 2.75 0
19 1115 26.5 -5 0
20 1143 27.5 0 0
21 1170 26.5 -1 0
22 1196 25.5 -1 0
23 1220 23 -2.25 0
24 1242 21 -2 0
25 1262 19 -2 0
26 1282 20 0.5 0
27 1300 17 -2.5 0
28 1318 18 0.5 0
29 1335 16.5 -1.25 0
30 1351 15.5 -1 0
31 1366 14.5 -1 0
32 1381 15 0.25 0
33 1396 15 0 0
34 1409 12 -2.5 0
35 1423 14.5 1.75 0
36 1435 11 -2.75 0
37 1447 12 0.5 0
38 1459 12 0 0
39 1470 10.5 -1.25 0
40 1482 12.5 1.5 0
41 1493 10.5 -1.5 0
42 1503 9.5 -1 0
43 1514 11.5 1.5 0
44 1524 9.5 -1.5 0
45 1533 8.5 -1 0
46 1543 10.5 1.5 0
47 1553 10 -0.25 0
48 1562 8.5 -1.25 0
49 1572 10.5 1.5 0
50 1580 7 -2.75 0
51 1589 9.5 1.75 0
52 1598 9 -0.25 0
53 1607 9 0 0
54 1615 7.5 -1.25 0
55 1623 8 0.25 0
56 1631 8 0 0
57 1638 6.5 -1.25 0
58 1644 5.5 -1 0
59 1651 7.5 1.5 0
60 1657 5.5 -1.5 0
61 1665 9 2.75 0
62 1673 8 -0.5 0
63 1681 8 0 0
64 1688 6.5 -1.25 0
65 1695 7 0.25 0
66 1701 5.5 -1.25 0
67 1708 7.5 1.5 0
68 1716 8.5 1 0
69 1723 6.5 -1.5 0
70 1730 7 0.25 0
71 1734 2.5 -3.75 0
72 1738 4 0.75 0
73 1743 5.5 1.25 0
74 1751 9.5 3.5 0
75 1760 9.5 0.5 0
76 1767 6 -2.75 0
77 1774 7 0.5 0
78 1779 4 -2.5 0
79 1785 6.5 1.75 0
80 1790 4.5 -1.5 0
81 1796 6.5 1.5 0
82 1801 4.5 -1.5 0
83 1805 3.5 -1 0
84 1808 2.5 -1 0
85 1811 3 0.25 0
86 1816 6 2.5 0
87 1823 8 2 0
88 1829 5.5 -1.75 0
89 1836 7.5 1.5 0
90 1843 7 -0.25 0
91 1851 8.5 1.25 0
92 1857 5 -2.75 0
93 1861 3 -2 0
94 1863 1 -2 0
95 1864 0.5 -0.75 0
96 1865 1 0.25 0
97 1868 4 2.5 0
98 1875 9 4.5 0
99 1875 -3.5 -9.75 0
100 1886 16.5 15.5 0
101 1894 6.5 -6.5 0
102 1898 2 -4.25 0
103 1900 1 -1.5 0
104 1903 3.5 1.75 0
105 1909 7.5 3.5 0
106 1918 10.5 3 0
107 1924 4.5 -4.5 0
108 1928 3 -1.75 0
109 1929 -0.5 -3.25 0
110 1930 1 0.75 0
111 1931 1 0 0
112 1932 1 0 0
113 1933 1 0 0
114 1934 1 0 0
115 1936 2.5 1.25 0
116 1938 2 -0.25 0
117 1944 8 5 0
118 1954 12 4 0
119 1970 19 6.5 0
120 1982 10 -6.5 0
121 1990 6 -4 0
122 1992 -1 -6.5 0
123 1994 2 1.5 0
124 1995 0.5 -1.25 0
125 1996 1 0.25 0
126 1997 1 0 0
127 1998 1 0 0
128 2000 2.5 1.25 0
129 2002 2 -0.25 0
130 2004 2 0 0
131 2006 2 0 0
132 2008 2 0 0
133 2011 3.5 1.25 0
134 2014 3 -0.25 0
135 2017 3 0 0
136 2020 3 0 0
137 2030 13.5 8.75 0
138 2048 22 8.25 0
139 2073 28.5 6.75 0
140 2091 14.5 -10.5 0
141 2101 6 -8.25 0
142 2102 -3.5 -9.25 0
143 2103 1 2.25 0
144 2104 1 0 0
145 2105 1 0 0
146 2106 1 0 0
147 2112 8.5 6.25 0
148 2123 13.5 5 0
149 2140 20 6.25 0
150 2153 11 -6.5 0
151 2162 7 -4 0
152 2165 0 -6.5 0
153 2166 0 -1 0
154 2167 1 0.5 0
155 2168 1 0 0
156 2169 1 0 0
157 2170 1 0 0
158 2172 2.5 1.25 0
159 2174 2 -0.25 0
160 2182 11 7.5 0
161 2195 15.5 4.75 0
162 2213 20.5 5 0
163 2227 12 -6.25 0
164 2234 3.5 -7.75 0
165 2235 -2 -5.75 0
166 2236 1 1.5 0
167 2237 1 0 0
168 2239 2.5 1.25 0
169 2241 2 -0.25 0
170 2247 8 5 0
171 2259 15 6.5 0
172 2275 18 3.5 0
173 2288 11.5 -4.75 0
174 2295 4 -6.75 0
175 2297 -0.5 -4.75 0
176 2298 0.5 0 0
177 2299 1 0.25 0
178 2301 2.5 1.25 0
179 2303 2 -0.25 0
180 2309 8 5 0
181 2321 15 6.5 0
182 2338 19.5 4.75 0
183 2350 9.5 -7.5 0
184 2359 7.5 -2.5 0
185 2366 6 -1.75 0
186 2376 11.5 4.25 0
187 2384 7 -3.25 0
188 2389 3.5 -3.25 0
189 2393 3.5 -0.5 0
190 2400 8.5 4 0
191 2409 10 1.75 0
192 2415 4.5 -4.25 0
193 2419 3 -1.75 0
194 2420 -0.5 -3.25 0
195 2421 1 0.75 0
196 2422 1 0 0
197 2424 2.5 1.25 0
198 2426 2 -0.25 0
199 2428 2 0 0
200 2435 9.5 6.25 0
201 2449 17.5 7.5 0
202 2469 23 5.75 0
203 2483 11 -9 0
204 2491 5 -6 0
205 2495 2 -3.5 0
206 2502 8.5 4.75 0
207 2512 11.5 3 0
208 2512 -5 -13.25 0
209 2523 16.5 16.25 0
210 2532 8 -5.25 0
211 2540 7.5 -0.75 0
212 2547 6.5 -1 0
213 2554 7 0.25 0
214 2559 4 -2.5 0
215 2562 2 -2 0
216 2564 1.5 -0.75 0
217 2565 0.5 -1 0
218 2566 1 0.25 0
219 2572 8.5 6.25 0
220 2583 13.5 5 0
221 2599 18.5 5 0
222 2611 10 -6.25 0
223 2620 7.5 -2.75 0
224 2627 6 -1.75 0
225 2636 10 3 0
226 2644 7.5 -1.75 0
227 2649 3.5 -3.5 0
228 2651 0.5 -3 0
229 2655 5 3.25 0
230 2664 11.5 5.75 0
231 2676 13.5 2.5 0
232 2686 9 -3.25 0
233 2692 4 -4.5 0
234 2694 0 -4 0
235 2699 6.5 4.75 0
236 2709 12.5 5.5 0
237 2724 17.5 5 0
238 2737 12 -3.75 0
239 2746 7 -4.5 0
240 2752 4.5 -2.75 0
241 2758 6 0.75 0
242 2768 12 5 0
243 2778 10 -1 0
244 2788 10 0 0
245 2794 4 -5 0
246 2798 3 -1.5 0
247 2800 1 -2 0
248 2804 5 3 0
249 2813 11.5 5.75 0
250 2826 15 3.75 0
251 2839 13 -1 0
252 2849 8.5 -3.75 0
253 2855 4 -4.25 0
254 2858 1.5 -2.75 0
255 2862 4.5 2 0
256 2869 8.5 3.5 0
257 2880 13 4.25 0
258 2892 12.5 0.25 0
259 2902 9 -2.75 0
260 2909 5.5 -3.25 0
261 2915 5.5 -0.5 0
262 2920 4.5 -1 0
263 2927 8 2.75 0
264 2937 11.5 3.25 0
265 2948 11.5 0.5 0
266 2958 9.5 -1.5 0
267 2967 8.5 -1 0
268 2973 4.5 -3.5 0
269 2978 4.5 -0.5 0
270 2985 8 2.75 0
271 2995 11.5 3.25 0
272 3006 11.5 0.5 0
273 3016 9.5 -1.5 0
274 3025 8.5 -1 0
275 3034 9 0.25 0
276 3043 9 0 0
277 3052 9 0 0
278 3060 7.5 -1.25 0
279 3069 9.5 1.5 0
280 3077 7.5 -1.5 0
281 3086 9.5 1.5 0
282 3095 9 -0.25 0
283 3104 9 0 0
284 3112 7.5 -1.25 0
285 3121 9.5 1.5 0
286 3130 9 -0.25 0
287 3139 9 0 0
288 3147 7.5 -1.25 0
289 3156 9.5 1.5 0
290 3164 7.5 -1.5 0
291 3173 9.5 1.5 0
292 3182 9 -0.25 0
293 3192 10.5 1.25 0
294 3202 10 -0.25 0
295 3211 8.5 -1.25 0
296 3220 9 0.25 0
297 3228 7.5 -1.25 0
298 3237 9.5 1.5 0
299 3246 9 -0.25 0
300 3255 9 0 0
301 3264 9 0 540.1
302 3272 7.5 -1.25 540.3
303 3281 9.5 1.5 540.5
304 3289 7.5 -1.5 540.7
305 3298 9.5 1.5 540.9
306 3307 9 -0.25 541.1
307 3318 12 2.5 541.3
308 3329 11 -0.5 541.5
309 3340 11 0 541.7
310 3350 9.5 -1.25 541.9
311 3360 10 0.25 542.1
312 3370 10 0 542.3
313 3380 10 0 542.5
314 3391 11.5 1.25 542.7
315 3401 9.5 -1.5 542.9
316 3407 4 -4.75 543.1
317 3413 6 1 543.3
318 3413 -3 -7.5 543.5
319 3421 12 11.5 543.7
320 3431 11 0.5 543.9
321 3441 10 -0.5 544.1
322 3449 7 -2.5 544.3
323 3452 0.5 -5.75 544.5
324 3457 6 3.75 544.7
325 3466 11 4.5 544.9
326 3482 19.5 7.75 545.1
327 3498 16 -1.75 545.3
328 3511 11.5 -3.75 545.5
329 3521 8.5 -3 545.7
330 3531 10 0.75 545.9
331 3540 8.5 -1.25 546.1
332 3550 10.5 1.5 546.3
333 3560 10 -0.25 546.5
334 3570 10 0 546.7
335 3581 11.5 1.25 546.9
336 3592 11 -0.25 547.1
337 3602 9.5 -1.25 547.3
338 3610 7 -2.25 547.5
339 3614 2 -4.5 547.7
340 3619 5.5 2.25 547.9
341 3628 11 4.75 548.1
342 3642 16.5 5.25 548.3
343 3656 14 -1.25 548.5
344 3668 11 -2.5 548.7
345 3678 9 -2 548.9
346 3687 8.5 -0.75 549.1
347 3696 9 0.25 549.3
348 3706 10.5 1.25 549.5
349 3717 11.5 1 549.7
350 3728 11 -0.25 549.9
351 3737 8 -2.5 550.1
352 3744 6 -2 550.3
353 3749 4 -2 550.5
354 3757 9.5 4.25 550.7
355 3770 15.5 5.5 550.9
356 3783 13 -1.25 551.1
357 3795 11.5 -1.25 551.3
358 3806 10.5 -1 551.5
359 3816 9.5 -1 551.7
360 3826 10 0.25 551.9
361 3837 11.5 1.25 552.1
362 3848 11 -0.25 552.3
363 3859 11 0 552.5
364 3870 11 0 552.7
365 3880 9.5 -1.25 552.9
366 3890 10 0.25 553.1
367 3899 8.5 -1.25 553.3
368 3908 9 0.25 553.5
369 3918 10.5 1.25 553.7
370 3929 11.5 1 553.9
371 3940 11 -0.25 554.1
372 3951 11 0 554.3
373 3962 11 0 554.5
374 3972 9.5 -1.25 554.7
375 3982 10 0.25 554.9
376 3994 13 2.5 555.1
377 4007 13.5 0.75 555.3
378 4019 11.5 -1.5 555.5
379 4031 12 0.25 555.7
380 4041 9 -2.5 555.9
381 4051 10 0.5 556.1
382 4060 8.5 -1.25 556.3
383 4070 10.5 1.5 556.5
384 4080 10 -0.25 556.7
385 4090 10 0 556.9
386 4100 10 0 557.1
387 4111 11.5 1.25 557.3
388 4123 12.5 1 557.5
389 4136 13.5 1 557.7
390 4149 13 -0.25 557.9
391 4162 13 0 558.1
392 4173 10 -2.5 558.3
393 4184 11 0.5 558.5
394 4194 9.5 -1.25 558.7
395 4205 11.5 1.5 558.9
396 4216 11 -0.25 559.1
397 4228 12.5 1.25 559.3
398 4241 13.5 1 559.5
399 4254 13 -0.25 559.7
400 4267 13 0 559.9
401 4278 10 -2.5 560.1
402 4288 9.5 -0.75 560.3
403 4298 10 0.25 560.5
404 4309 11.5 1.25 560.7
405 4322 14 2.25 560.9
406 4334 11.5 -1.75 561.1
407 4347 13.5 1.5 561.3
408 4360 13 -0.25 561.5
409 4373 13 0 561.7
410 4387 14.5 1.25 561.9
411 4400 12.5 -1.5 562.1
412 4413 13 0.25 562.3
413 4426 13 0 562.5
414 4438 11.5 -1.25 562.7
415 4449 10.5 -1 562.9
416 4461 12.5 1.5 563.1
417 4472 10.5 -1.5 563.3
418 4484 12.5 1.5 563.5
419 4496 12 -0.25 563.7
420 4508 12 0 563.9
421 4521 13.5 1.25 564.1
422 4534 13 -0.25 564.3
423 4547 13 0 564.5
424 4561 14.5 1.25 564.7
425 4574 12.5 -1.5 564.9
426 4588 14.5 1.5 565.1
427 4601 12.5 -1.5 565.3
428 4601 -6.5 -16 565.5
429 4614 19.5 19.5 565.7
430 4627 13 -3.25 565.9
431 4640 13 0 566.1
432 4652 11.5 -1.25 566.3
433 4664 12 0.25 566.5
434 4676 12 0 566.7
435 4689 13.5 1.25 566.9
436 4703 14.5 1 567.1
437 4718 15.5 1 567.3
438 4732 13.5 -1.5 567.5
439 4746 14 0.25 567.7
440 4759 12.5 -1.25 567.9
441 4770 10 -2.25 568.1
442 4781 11 0.5 568.3
443 4792 11 0 568.5
444 4803 11 0 568.7
445 4814 11 0 568.9
446 4826 12.5 1.25 569.1
447 4838 12 -0.25 569.3
448 4851 13.5 1.25 569.5
449 4863 11.5 -1.5 569.7
450 4875 12 0.25 569.9
451 4887 12 0 570.1
452 4901 15 2.5 570.3
453 4915 14 -0.5 570.5
454 4929 14 0 570.7
455 4942 12.5 -1.25 570.9
456 4955 13 0.25 571.1
457 4967 11.5 -1.25 571.3
458 4978 10.5 -1 571.5
459 4990 12.5 1.5 571.7
460 5003 13.5 1 571.9
461 5015 11.5 -1.5 572.1
462 5028 13.5 1.5 572.3
463 5041 13 -0.25 572.5
464 5056 16 2.5 572.7
465 5072 16.5 0.75 572.9
466 5088 16 -0.25 573.1
467 5104 16 0 573.3
468 5119 14.5 -1.25 573.5
469 5133 13.5 -1 573.7
470 5147 14 0.25 573.9
471 5161 14 0 574.1
472 5174 12.5 -1.25 574.3
473 5188 14.5 1.5 574.5
474 5201 12.5 -1.5 574.7
475 5215 14.5 1.5 574.9
476 5230 15.5 1 575.1
477 5245 15 -0.25 575.3
478 5259 13.5 -1.25 575.5
479 5273 14 0.25 575.7
480 5286 12.5 -1.25 575.9
481 5301 16 2.75 576.1
482 5318 18 2 576.3
483 5336 18.5 0.75 576.5
484 5354 18 -0.25 576.7
485 5371 16.5 -1.25 576.9
486 5388 17 0.25 577.1
487 5403 14 -2.5 577.3
488 5418 15 0.5 577.5
489 5432 13.5 -1.25 577.7
490 5446 14 0.25 577.9
491 5462 17 2.5 578.1
492 5478 16 -0.5 578.3
493 5493 14.5 -1.25 578.5
494 5508 15 0.25 578.7
495 5523 15 0 578.9
496 5539 16.5 1.25 579.1
497 5554 14.5 -1.5 579.3
498 5569 15 0.25 579.5
499 5584 15 0 579.7
500 5598 13.5 -1.25 579.9
501 5613 15.5 1.5 580.1
502 5629 16.5 1 580.3
503 5646 17.5 1 580.5
504 5662 15.5 -1.5 580.7
505 5678 16 0.25 580.9
506 5694 16 0 581.1
507 5709 14.5 -1.25 581.3
508 5724 15 0.25 581.5
509 5738 13.5 -1.25 581.7
510 5752 14 0.25 581.9
511 5767 15.5 1.25 582.1
512 5782 15 -0.25 582.3
513 5797 15 0 582.5
514 5811 13.5 -1.25 582.7
515 5825 14 0.25 582.9
516 5840 15.5 1.25 583.1
517 5856 16.5 1 583.3
518 5871 14.5 -1.5 583.5
519 5886 15 0.25 583.7
520 5901 15 0 583.9
521 5915 13.5 -1.25 584.1
522 5928 12.5 -1 584.3
523 5942 14.5 1.5 584.5
524 5956 14 -0.25 584.7
525 5972 17 2.5 584.9
526 5988 16 -0.5 585.1
527 6006 19 2.5 585.3
528 6024 18 -0.5 585.5
529 6040 15 -2.5 585.7
530 6054 13 -2 585.9
531 6066 11 -2 586.1
532 6079 13.5 1.75 586.3
533 6094 16 2.25 586.5
534 6111 18 2 586.7
535 6130 20 2 586.9
536 6149 19 -0.5 587.1
537 6166 16 -2.5 587.3
538 6166 -8.5 -20.75 587.5
539 6183 25.5 25.5 587.7
540 6200 17 -4.25 587.9
541 6218 18.5 1.25 588.1
542 6234 15 -2.75 588.3
543 6250 16 0.5 588.5
544 6266 16 0 588.7
545 6283 17.5 1.25 588.9
546 6300 17 -0.25 589.1
547 6318 18.5 1.25 589.3
548 6337 19.5 1 589.5
549 6356 19 -0.25 589.7
550 6374 17.5 -1.25 589.9
551 6390 15 -2.25 590.1
552 6406 16 0.5 590.3
553 6422 16 0 590.5
554 6439 17.5 1.25 590.7
555 6456 17 -0.25 590.9
556 6473 17 0 591.1
557 6490 17 0 591.3
558 6507 17 0 591.5
559 6525 18.5 1.25 591.7
560 6542 16.5 -1.5 591.9
561 6559 17 0.25 592.1
562 6576 17 0 592.3
563 6593 17 0 592.5
564 6610 17 0 592.7
565 6626 15.5 -1.25 592.9
566 6642 16 0.25 593.1
567 6658 16 0 593.3
568 6675 17.5 1.25 593.5
569 6692 17 -0.25 593.7
570 6710 18.5 1.25 593.9
571 6728 18 -0.25 594.1
572 6746 18 0 594.3
573 6763 16.5 -1.25 594.5
574 6781 18.5 1.5 594.7
575 6800 19.5 1 594.9
576 6819 19 -0.25 595.1
577 6837 17.5 -1.25 595.3
578 6854 16.5 -1 595.5
579 6869 14 -2.25 595.7
580 6883 13.5 -0.75 595.9
581 6897 14 0.25 596.1
582 6914 18.5 3.75 596.3
583 6932 18.5 0.5 596.5
584 6952 21 2.25 596.7
585 6974 23 2 596.9
586 6995 20.5 -1.75 597.1
587 7015 19.5 -1 597.3
588 7032 15.5 -3.5 597.5
589 7046 12.5 -3 597.7
590 7059 12.5 -0.5 597.9
591 7073 14.5 1.5 598.1
592 7088 15.5 1 598.3
593 7105 18 2.25 598.5
594 7124 20 2 598.7
595 7143 19 -0.5 598.9
596 7162 19 0 599.1
597 7181 19 0 599.3
598 7199 17.5 -1.25 599.5
599 7217 18 0.25 599.7
600 7235 18 0 599.9
