Time[s] CO2_smooth[ppm] dCO2_dt[ppm/s] d2CO2_dt2[ppm/s^2]
0 654 nan nan
1 664 nan nan
2 670 4 -4
3 674 3 -1.5
4 676 1 -2
5 676 -1 -2
6 676 0 0.5
7 678 3 2.5
8 680 2 -0.5
9 680 -1 -2.5
10 682 3 3
11 684 2 -0.5
12 686 2 0
13 688 2 0
14 690 2 0
15 692 2 0
16 696 5 2.5
17 698 1 -3
18 700 2 0.5
19 702 2 0
20 704 2 0
21 708 5 2.5
22 710 1 -3
23 714 5 3
24 718 4 -0.5
25 722 4 0
26 724 1 -2.5
27 728 5 3
28 730 1 -3
29 734 5 3
30 736 1 -3
31 740 5 3
32 742 1 -3
33 746 5 3
34 748 1 -3
35 752 5 3
36 756 4 -0.5
37 758 1 -2.5
38 762 5 3
39 764 1 -3
40 768 5 3
41 772 4 -0.5
42 774 1 -2.5
43 778 5 3
44 780 1 -3
45 784 5 3
46 786 1 -3
47 790 5 3
48 792 1 -3
49 794 2 0.5
50 796 2 0
51 800 5 2.5
52 802 1 -3
53 804 2 0.5
54 806 2 0
55 810 5 2.5
56 812 1 -3
57 814 2 0.5
58 816 2 0
59 818 2 0
60 820 2 0
61 822 2 0
62 824 2 0
63 826 2 0
64 828 2 0
65 830 2 0
66 832 2 0
67 834 2 0
68 836 2 0
69 838 2 0
70 840 2 0
71 842 2 0
72 844 2 0
73 846 2 0
74 850 5 2.5
75 852 1 -3
76 854 2 0.5
77 856 2 0
78 858 2 0
79 860 2 0
80 862 2 0
81 864 2 0
82 866 2 0
83 868 2 0
84 870 2 0
85 872 2 0
86 874 2 0
87 876 2 0
88 876 -1 -2.5
89 878 3 3
90 880 2 -0.5
91 882 2 0
92 882 -1 -2.5
93 884 3 3
94 886 2 -0.5
95 888 2 0
96 890 2 0
97 890 -1 -2.5
98 892 3 3
99 894 2 -0.5
100 896 2 0
101 898 2 0
102 900 2 0
103 902 2 0
104 904 2 0
105 906 2 0
106 908 2 0
107 910 2 0
108 912 2 0
109 914 2 0
110 916 2 0
111 918 2 0
112 920 2 0
113 922 2 0
114 924 2 0
115 926 2 0
116 928 2 0
117 928 -1 -2.5
118 930 3 3
119 932 2 -0.5
120 934 2 0
121 934 -1 -2.5
122 936 3 3
123 938 2 -0.5
124 940 2 0
125 942 2 0
126 944 2 0
127 946 2 0
128 948 2 0
129 950 2 0
130 950 -1 -2.5
131 952 3 3
132 954 2 -0.5
133 956 2 0
134 956 -1 -2.5
135 958 3 3
136 960 2 -0.5
137 962 2 0
138 964 2 0
139 966 2 0
140 968 2 0
141 968 -1 -2.5
142 970 3 3
143 972 2 -0.5
144 974 2 0
145 974 -1 -2.5
146 976 3 3
147 978 2 -0.5
148 980 2 0
149 982 2 0
150 984 2 0
151 986 2 0
152 988 2 0
153 990 2 0
154 992 2 0
155 994 2 0
156 996 2 0
157 996 -1 -2.5
158 998 3 3
159 1000 2 -0.5
160 1001 0.5 -1.25
161 1002 1 0.25
162 1003 1 0
163 1004 1 0
164 1005 1 0
165 1006 1 0
166 1007 1 0
167 1008 1 0
168 1009 1 0
169 1010 1 0
170 1010 -0.5 -1.25
171 1011 1.5 1.5
172 1012 1 -0.25
173 1013 1 0
174 1014 1 0
175 1015 1 0
176 1016 1 0
177 1017 1 0
178 1018 1 0
179 1019 1 0
180 1020 1 0
181 1022 2.5 1.25
182 1023 0.5 -1.5
183 1024 1 0.25
184 1025 1 0
185 1026 1 0
186 1027 1 0
187 1028 1 0
188 1029 1 0
189 1030 1 0
190 1031 1 0
191 1032 1 0
192 1033 1 0
193 1034 1 0
194 1035 1 0
195 1035 -0.5 -1.25
196 1036 1.5 1.5
197 1037 1 -0.25
198 1038 1 0
199 1039 1 0
200 1040 1 0
201 1041 1 0
202 1041 -0.5 -1.25
203 1042 1.5 1.5
204 1043 1 -0.25
205 1044 1 0
206 1046 2.5 1.25
207 1047 0.5 -1.5
208 1048 1 0.25
209 1049 1 0
210 1050 1 0
211 1052 2.5 1.25
212 1053 0.5 -1.5
213 1054 1 0.25
214 1055 1 0
215 1056 1 0
216 1056 -0.5 -1.25
217 1057 1.5 1.5
218 1058 1 -0.25
219 1059 1 0
220 1060 1 0
221 1061 1 0
222 1062 1 0
223 1063 1 0
224 1064 1 0
225 1065 1 0
226 1066 1 0
227 1067 1 0
228 1068 1 0
229 1069 1 0
230 1070 1 0
231 1071 1 0
232 1072 1 0
233 1073 1 0
234 1074 1 0
235 1075 1 0
236 1077 2.5 1.25
237 1078 0.5 -1.5
238 1079 1 0.25
239 1081 2.5 1.25
240 1082 0.5 -1.5
241 1083 1 0.25
242 1084 1 0
243 1086 2.5 1.25
244 1087 0.5 -1.5
245 1088 1 0.25
246 1089 1 0
247 1090 1 0
248 1091 1 0
249 1092 1 0
250 1093 1 0
251 1094 1 0
252 1095 1 0
253 1096 1 0
254 1097 1 0
255 1098 1 0
256 1099 1 0
257 1100 1 0
258 1101 1 0
259 1102 1 0
260 1103 1 0
261 1104 1 0
262 1106 2.5 1.25
263 1107 0.5 -1.5
264 1108 1 0.25
265 1109 1 0
266 1111 2.5 1.25
267 1112 0.5 -1.5
268 1114 2.5 1.5
269 1115 0.5 -1.5
270 1116 1 0.25
271 1117 1 0
272 1118 1 0
273 1119 1 0
274 1121 2.5 1.25
275 1122 0.5 -1.5
276 1123 1 0.25
277 1125 2.5 1.25
278 1126 0.5 -1.5
279 1128 2.5 1.5
280 1129 0.5 -1.5
281 1130 1 0.25
282 1132 2.5 1.25
283 1133 0.5 -1.5
284 1135 2.5 1.5
285 1136 0.5 -1.5
286 1137 1 0.25
287 1139 2.5 1.25
288 1140 0.5 -1.5
289 1141 1 0.25
290 1142 1 0
291 1143 1 0
292 1145 2.5 1.25
293 1146 0.5 -1.5
294 1147 1 0.25
295 1148 1 0
296 1150 2.5 1.25
297 1151 0.5 -1.5
298 1152 1 0.25
299 1154 2.5 1.25
300 1155 0.5 -1.5
301 1157 2.5 1.5
302 1158 0.5 -1.5
303 1160 2.5 1.5
304 1161 0.5 -1.5
305 1162 1 0.25
306 1164 2.5 1.25
307 1165 0.5 -1.5
308 1166 1 0.25
309 1168 2.5 1.25
310 1169 0.5 -1.5
311 1171 2.5 1.5
312 1172 0.5 -1.5
313 1174 2.5 1.5
314 1175 0.5 -1.5
315 1175 -0.5 -1
316 1177 3 2.75
317 1179 2 -0.5
318 1180 0.5 -1.25
319 1182 2.5 1.5
320 1183 0.5 -1.5
321 1184 1 0.25
322 1186 2.5 1.25
323 1187 0.5 -1.5
324 1188 1 0.25
325 1189 1 0
326 1191 2.5 1.25
327 1192 0.5 -1.5
328 1193 1 0.25
329 1195 2.5 1.25
330 1196 0.5 -1.5
331 1198 2.5 1.5
332 1199 0.5 -1.5
333 1200 1 0.25
334 1202 2.5 1.25
335 1203 0.5 -1.5
336 1205 2.5 1.5
337 1206 0.5 -1.5
338 1208 2.5 1.5
339 1209 0.5 -1.5
340 1211 2.5 1.5
341 1213 2 -0.25
342 1214 0.5 -1.25
343 1216 2.5 1.5
344 1218 2 -0.25
345 1219 0.5 -1.25
346 1221 2.5 1.5
347 1223 2 -0.25
348 1224 0.5 -1.25
349 1226 2.5 1.5
350 1227 0.5 -1.5
351 1229 2.5 1.5
352 1230 0.5 -1.5
353 1231 1 0.25
354 1233 2.5 1.25
355 1235 2 -0.25
356 1236 0.5 -1.25
357 1238 2.5 1.5
358 1240 2 -0.25
359 1242 2 0
360 1244 2 0
361 1245 0.5 -1.25
362 1247 2.5 1.5
363 1249 2 -0.25
364 1251 2 0
365 1252 0.5 -1.25
366 1254 2.5 1.5
367 1255 0.5 -1.5
368 1256 1 0.25
369 1258 2.5 1.25
370 1259 0.5 -1.5
371 1260 1 0.25
372 1262 2.5 1.25
373 1263 0.5 -1.5
374 1265 2.5 1.5
375 1266 0.5 -1.5
376 1268 2.5 1.5
377 1270 2 -0.25
378 1271 0.5 -1.25
379 1273 2.5 1.5
380 1275 2 -0.25
381 1277 2 0
382 1279 2 0
383 1281 2 0
384 1283 2 0
385 1285 2 0
386 1287 2 0
387 1288 0.5 -1.25
388 1290 2.5 1.5
389 1292 2 -0.25
390 1293 0.5 -1.25
391 1295 2.5 1.5
392 1297 2 -0.25
393 1299 2 0
394 1301 2 0
395 1302 0.5 -1.25
396 1304 2.5 1.5
397 1306 2 -0.25
398 1307 0.5 -1.25
399 1309 2.5 1.5
400 1310 0.5 -1.5
401 1311 1 0.25
402 1312 1 0
403 1314 2.5 1.25
404 1315 0.5 -1.5
405 1316 1 0.25
406 1318 2.5 1.25
407 1319 0.5 -1.5
408 1321 2.5 1.5
409 1322 0.5 -1.5
410 1324 2.5 1.5
411 1325 0.5 -1.5
412 1327 2.5 1.5
413 1328 0.5 -1.5
414 1330 2.5 1.5
415 1331 0.5 -1.5
416 1333 2.5 1.5
417 1334 0.5 -1.5
418 1335 1 0.25
419 1337 2.5 1.25
420 1338 0.5 -1.5
421 1339 1 0.25
422 1341 2.5 1.25
423 1342 0.5 -1.5
424 1343 1 0.25
425 1345 2.5 1.25
426 1347 2 -0.25
427 1348 0.5 -1.25
428 1350 2.5 1.5
429 1350 -1 -2.75
430 1352 3 3
431 1353 0.5 -1.75
432 1355 2.5 1.5
433 1356 0.5 -1.5
434 1358 2.5 1.5
435 1359 0.5 -1.5
436 1361 2.5 1.5
437 1362 0.5 -1.5
438 1364 2.5 1.5
439 1365 0.5 -1.5
440 1366 1 0.25
441 1368 2.5 1.25
442 1369 0.5 -1.5
443 1371 2.5 1.5
444 1372 0.5 -1.5
445 1374 2.5 1.5
446 1376 2 -0.25
447 1377 0.5 -1.25
448 1379 2.5 1.5
449 1381 2 -0.25
450 1382 0.5 -1.25
451 1384 2.5 1.5
452 1385 0.5 -1.5
453 1387 2.5 1.5
454 1388 0.5 -1.5
455 1390 2.5 1.5
456 1391 0.5 -1.5
457 1393 2.5 1.5
458 1394 0.5 -1.5
459 1396 2.5 1.5
460 1397 0.5 -1.5
461 1399 2.5 1.5
462 1400 0.5 -1.5
463 1401 1 0.25
464 1403 2.5 1.25
465 1404 0.5 -1.5
466 1405 1 0.25
467 1407 2.5 1.25
468 1409 2 -0.25
469 1411 2 0
470 1412 0.5 -1.25
471 1414 2.5 1.5
472 1416 2 -0.25
473 1417 0.5 -1.25
474 1419 2.5 1.5
475 1420 0.5 -1.5
476 1422 2.5 1.5
477 1423 0.5 -1.5
478 1424 1 0.25
479 1426 2.5 1.25
480 1427 0.5 -1.5
481 1429 2.5 1.5
482 1430 0.5 -1.5
483 1432 2.5 1.5
484 1433 0.5 -1.5
485 1435 2.5 1.5
486 1436 0.5 -1.5
487 1438 2.5 1.5
488 1439 0.5 -1.5
489 1441 2.5 1.5
490 1442 0.5 -1.5
491 1444 2.5 1.5
492 1445 0.5 -1.5
493 1447 2.5 1.5
494 1448 0.5 -1.5
495 1450 2.5 1.5
496 1451 0.5 -1.5
497 1453 2.5 1.5
498 1454 0.5 -1.5
499 1456 2.5 1.5
500 1458 2 -0.25
501 1459 0.5 -1.25
502 1461 2.5 1.5
503 1462 0.5 -1.5
504 1464 2.5 1.5
505 1466 2 -0.25
506 1468 2 0
507 1469 0.5 -1.25
508 1471 2.5 1.5
509 1472 0.5 -1.5
510 1474 2.5 1.5
511 1476 2 -0.25
512 1478 2 0
513 1479 0.5 -1.25
514 1481 2.5 1.5
515 1483 2 -0.25
516 1485 2 0
517 1486 0.5 -1.25
518 1488 2.5 1.5
519 1490 2 -0.25
520 1492 2 0
521 1493 0.5 -1.25
522 1495 2.5 1.5
523 1497 2 -0.25
524 1499 2 0
525 1501 2 0
526 1502 0.5 -1.25
527 1504 2.5 1.5
528 1506 2 -0.25
529 1507 0.5 -1.25
530 1509 2.5 1.5
531 1511 2 -0.25
532 1513 2 0
533 1514 0.5 -1.25
534 1516 2.5 1.5
535 1517 0.5 -1.5
536 1519 2.5 1.5
537 1520 0.5 -1.5
538 1522 2.5 1.5
539 1524 2 -0.25
540 1526 2 0
541 1526 -1 -2.5
542 1527 1.5 1.75
543 1529 2.5 1
544 1531 2 -0.25
545 1532 0.5 -1.25
546 1534 2.5 1.5
547 1536 2 -0.25
548 1537 0.5 -1.25
549 1539 2.5 1.5
550 1541 2 -0.25
551 1543 2 0
552 1545 2 0
553 1547 2 0
554 1549 2 0
555 1550 0.5 -1.25
556 1552 2.5 1.5
557 1554 2 -0.25
558 1556 2 0
559 1558 2 0
560 1560 2 0
561 1562 2 0
562 1563 0.5 -1.25
563 1565 2.5 1.5
564 1567 2 -0.25
565 1569 2 0
566 1571 2 0
567 1573 2 0
568 1574 0.5 -1.25
569 1576 2.5 1.5
570 1578 2 -0.25
571 1579 0.5 -1.25
572 1581 2.5 1.5
573 1583 2 -0.25
574 1584 0.5 -1.25
575 1586 2.5 1.5
576 1588 2 -0.25
577 1590 2 0
578 1591 0.5 -1.25
579 1593 2.5 1.5
580 1595 2 -0.25
581 1597 2 0
582 1599 2 0
583 1601 2 0
584 1603 2 0
585 1605 2 0
586 1606 0.5 -1.25
587 1608 2.5 1.5
588 1610 2 -0.25
589 1612 2 0
590 1614 2 0
591 1616 2 0
592 1618 2 0
593 1620 2 0
594 1622 2 0
595 1624 2 0
596 1626 2 0
597 1628 2 0
598 1630 2 0
599 1632 2 0
