Time[s] CO2_smooth[ppm] dCO2_dt[ppm/s] d2CO2_dt2[ppm/s^2]
0 1099 nan nan
1 1121 nan nan
2 1141 19 -2
3 1158 15.5 -3.25
4 1174 15.5 -0.5
5 1189 14.5 -1
6 1203 13.5 -1
7 1216 12.5 -1
8 1230 14.5 1.5
9 1242 11 -2.75
10 1253 10.5 -0.75
11 1264 11 0.25
12 1275 11 0
13 1285 9.5 -1.25
14 1296 11.5 1.5
15 1306 9.5 -1.5
16 1316 10 0.25
17 1325 8.5 -1.25
18 1334 9 0.25
19 1341 6 -2.5
20 1341 -3.5 -8.25
21 1349 12 11.75
22 1357 8 -2
23 1365 8 0
24 1373 8 0
25 1380 6.5 -1.25
26 1388 8.5 1.5
27 1395 6.5 -1.5
28 1402 7 0.25
29 1410 8.5 1.25
30 1416 5 -2.75
31 1421 4.5 -0.75
32 1425 3.5 -1
33 1429 4 0.25
34 1435 7 2.5
35 1442 7.5 0.75
36 1448 5.5 -1.5
37 1454 6 0.25
38 1460 6 0
39 1466 6 0
40 1472 6 0
41 1479 7.5 1.25
42 1486 7 -0.25
43 1492 5.5 -1.25
44 1498 6 0.25
45 1502 3 -2.5
46 1504 1 -2
47 1507 3.5 1.75
48 1512 6 2.25
49 1520 9.5 3.25
50 1527 6.5 -2
51 1534 7 0.25
52 1538 2.5 -3.75
53 1542 4 0.75
54 1546 4 0
55 1551 5.5 1.25
56 1558 8 2.25
57 1565 7 -0.5
58 1571 5.5 -1.25
59 1577 6 0.25
60 1582 4.5 -1.25
61 1588 6.5 1.5
62 1593 4.5 -1.5
63 1596 2 -2.25
64 1598 1.5 -0.75
65 1601 3.5 1.5
66 1607 7.5 3.5
67 1615 9 1.75
68 1620 3.5 -4.25
69 1624 3.5 -0.5
70 1627 2.5 -1
71 1632 6 2.75
72 1637 5 -0.5
73 1639 0.5 -3.75
74 1640 0.5 -0.5
75 1643 4 2.75
76 1648 6 2
77 1657 11 4.5
78 1666 9 -1
79 1673 6 -2.5
80 1679 5.5 -0.75
81 1686 7.5 1.5
82 1692 5.5 -1.5
83 1696 3 -2.25
84 1698 1 -2
85 1702 5 3
86 1707 5.5 0.75
87 1715 9.5 3.5
88 1723 8 -0.75
89 1731 8 0
90 1737 5 -2.5
91 1744 7.5 1.75
92 1749 4 -2.75
93 1754 5 0.5
94 1756 0.5 -3.75
95 1759 3.5 2
96 1764 6 2.25
97 1770 6.5 0.75
98 1774 3 -2.75
99 1778 4 0.5
100 1783 5.5 1.25
101 1792 11 4.75
102 1801 9 -1
103 1808 6 -2.5
104 1814 5.5 -0.75
105 1819 4.5 -1
106 1825 6.5 1.5
107 1832 7.5 1
108 1838 5.5 -1.5
109 1842 3 -2.25
110 1844 1 -2
111 1846 2 0.5
112 1847 0.5 -1.25
113 1848 1 0.25
114 1849 1 0
115 1850 1 0
116 1852 2.5 1.25
117 1854 2 -0.25
118 1856 2 0
119 1858 2 0
120 1866 11 7.5
121 1877 12.5 2.25
122 1893 18.5 5.5
123 1904 8.5 -7.5
124 1909 2 -6.25
125 1910 -1 -3.5
126 1911 1 1
127 1915 5.5 3.75
128 1922 8.5 3
129 1933 13 4.25
130 1940 5 -6
131 1945 4 -1.5
132 1946 -1 -4.5
133 1947 1 1
134 1948 1 0
135 1949 1 0
136 1950 1 0
137 1952 2.5 1.25
138 1954 2 -0.25
139 1956 2 0
140 1958 2 0
141 1960 2 0
142 1962 2 0
143 1964 2 0
144 1967 3.5 1.25
145 1967 -1.5 -4
146 1969 3 3.25
147 1972 3.5 0.75
148 1975 3 -0.25
149 1978 3 0
150 1981 3 0
151 1984 3 0
152 1994 13.5 8.75
153 2012 22 8.25
154 2037 28.5 6.75
155 2055 14.5 -10.5
156 2064 4.5 -9.5
157 2065 -3 -7.75
158 2066 1 2
159 2067 1 0
160 2069 2.5 1.25
161 2071 2 -0.25
162 2073 2 0
163 2075 2 0
164 2077 2 0
165 2080 3.5 1.25
166 2083 3 -0.25
167 2086 3 0
168 2088 1.5 -1.25
169 2091 3.5 1.5
170 2094 3 -0.25
171 2097 3 0
172 2099 1.5 -1.25
173 2102 3.5 1.5
174 2112 13.5 8.5
175 2129 20.5 7
176 2153 27.5 7
177 2170 13.5 -10.5
178 2179 5 -8.25
179 2181 -1.5 -6.75
180 2182 0.5 0.5
181 2183 1 0.25
182 2184 1 0
183 2185 1 0
184 2187 2.5 1.25
185 2188 0.5 -1.5
186 2190 2.5 1.5
187 2192 2 -0.25
188 2194 2 0
189 2196 2 0
190 2199 3.5 1.25
191 2202 3 -0.25
192 2211 12 7.5
193 2226 18 6
194 2246 22.5 4.75
195 2260 11 -8.75
196 2267 3.5 -7.25
197 2268 -2 -5.75
198 2269 1 1.5
199 2270 1 0
200 2271 1 0
201 2273 2.5 1.25
202 2275 2 -0.25
203 2281 8 5
204 2291 12 4
205 2304 14.5 2.75
206 2314 8.5 -4.5
207 2318 1 -6.75
208 2319 -0.5 -2.25
209 2320 1 0.75
210 2321 1 0
211 2323 2.5 1.25
212 2325 2 -0.25
213 2327 2 0
214 2330 3.5 1.25
215 2332 1.5 -1.5
216 2335 3.5 1.5
217 2337 1.5 -1.5
218 2339 2 0.25
219 2342 3.5 1.25
220 2345 3 -0.25
221 2348 3 0
222 2351 3 0
223 2354 3 0
224 2357 3 0
225 2360 3 0
226 2364 4.5 1.25
227 2367 2.5 -1.5
228 2371 4.5 1.5
229 2375 4 -0.25
230 2378 2.5 -1.25
231 2382 4.5 1.5
232 2385 2.5 -1.5
233 2388 3 0.25
234 2392 4.5 1.25
235 2395 2.5 -1.5
236 2399 4.5 1.5
237 2402 2.5 -1.5
238 2406 4.5 1.5
239 2410 4 -0.25
240 2414 4 0
241 2418 4 0
242 2422 4 0
243 2426 4 0
244 2430 4 0
245 2434 4 0
246 2438 4 0
247 2442 4 0
248 2446 4 0
249 2450 4 0
250 2454 4 0
251 2458 4 0
252 2463 5.5 1.25
253 2467 3.5 -1.5
254 2472 5.5 1.5
255 2476 3.5 -1.5
256 2480 4 0.25
257 2484 4 0
258 2488 4 0
259 2493 5.5 1.25
260 2497 3.5 -1.5
261 2502 5.5 1.5
262 2506 3.5 -1.5
263 2510 4 0.25
264 2514 4 0
265 2518 4 0
266 2522 4 0
267 2527 5.5 1.25
268 2531 3.5 -1.5
269 2531 -2 -4.75
270 2536 7.5 7.25
271 2541 5 -1.25
272 2545 3.5 -1.25
273 2550 5.5 1.5
274 2555 5 -0.25
275 2559 3.5 -1.25
276 2564 5.5 1.5
277 2569 5 -0.25
278 2573 3.5 -1.25
279 2578 5.5 1.5
280 2583 5 -0.25
281 2597 18.5 11.25
282 2621 29 10.25
283 2653 36 7.5
284 2675 17 -14.5
285 2686 5.5 -11.25
286 2687 -4 -9.75
287 2688 1 2.5
288 2689 1 0
289 2690 1 0
290 2692 2.5 1.25
291 2694 2 -0.25
292 2696 2 0
293 2698 2 0
294 2700 2 0
295 2702 2 0
296 2705 3.5 1.25
297 2708 3 -0.25
298 2711 3 0
299 2714 3 0
300 2717 3 0
301 2720 3 0
302 2723 3 0
303 2726 3 0
304 2730 4.5 1.25
305 2734 4 -0.25
306 2738 4 0
307 2741 2.5 -1.25
308 2745 4.5 1.5
309 2749 4 -0.25
310 2752 2.5 -1.25
311 2756 4.5 1.5
312 2760 4 -0.25
313 2764 4 0
314 2768 4 0
315 2772 4 0
316 2776 4 0
317 2780 4 0
318 2784 4 0
319 2788 4 0
320 2793 5.5 1.25
321 2797 3.5 -1.5
322 2801 4 0.25
323 2806 5.5 1.25
324 2810 3.5 -1.5
325 2815 5.5 1.5
326 2819 3.5 -1.5
327 2823 4 0.25
328 2828 5.5 1.25
329 2832 3.5 -1.5
330 2847 20.5 14
331 2870 27 7.25
332 2902 36.5 9.25
333 2924 17 -14.75
334 2935 5.5 -11.25
335 2937 -2.5 -8.5
336 2938 0.5 1
337 2940 2.5 1.5
338 2942 2 -0.25
339 2944 2 0
340 2946 2 0
341 2948 2 0
342 2951 3.5 1.25
343 2953 1.5 -1.5
344 2956 3.5 1.5
345 2959 3 -0.25
346 2962 3 0
347 2965 3 0
348 2968 3 0
349 2971 3 0
350 2982 15 10
351 3000 21.5 6.75
352 3025 28.5 7
353 3043 14.5 -10.5
354 3052 4.5 -9.5
355 3054 -1.5 -6.5
356 3055 0.5 0.5
357 3056 1 0.25
358 3057 1 0
359 3058 1 0
360 3060 2.5 1.25
361 3062 2 -0.25
362 3064 2 0
363 3067 3.5 1.25
364 3069 1.5 -1.5
365 3072 3.5 1.5
366 3074 1.5 -1.5
367 3077 3.5 1.5
368 3080 3 -0.25
369 3083 3 0
370 3087 4.5 1.25
371 3090 2.5 -1.5
372 3093 3 0.25
373 3097 4.5 1.25
374 3101 4 -0.25
375 3105 4 0
376 3109 4 0
377 3113 4 0
378 3117 4 0
379 3121 4 0
380 3125 4 0
381 3129 4 0
382 3134 5.5 1.25
383 3138 3.5 -1.5
384 3142 4 0.25
385 3147 5.5 1.25
386 3151 3.5 -1.5
387 3156 5.5 1.5
388 3161 5 -0.25
389 3166 5 0
390 3171 5 0
391 3175 3.5 -1.25
392 3180 5.5 1.5
393 3185 5 -0.25
394 3185 -2.5 -6.25
395 3190 7.5 7.5
396 3195 5 -1.25
397 3200 5 0
398 3206 6.5 1.25
399 3211 4.5 -1.5
400 3216 5 0.25
401 3222 6.5 1.25
402 3227 4.5 -1.5
403 3233 6.5 1.5
404 3238 4.5 -1.5
405 3244 6.5 1.5
406 3249 4.5 -1.5
407 3254 5 0.25
408 3259 5 0
409 3264 5 0
410 3269 5 0
411 3275 6.5 1.25
412 3280 4.5 -1.5
413 3286 6.5 1.5
414 3291 4.5 -1.5
415 3297 6.5 1.5
416 3303 6 -0.25
417 3309 6 0
418 3315 6 0
419 3321 6 0
420 3339 24 15
421 3369 36 12
422 3410 46.5 10.75
423 3439 23 -17.75
424 3454 8 -14.5
425 3456 -4.5 -12.75
426 3457 0.5 2
427 3458 1 0.25
428 3460 2.5 1.25
429 3461 0.5 -1.5
430 3463 2.5 1.5
431 3465 2 -0.25
432 3467 2 0
433 3475 11 7.5
434 3489 17 6
435 3508 21.5 4.75
436 3523 13 -6.25
437 3531 4.5 -7.75
438 3533 -1 -5.75
439 3534 0.5 0.25
440 3535 1 0.25
441 3537 2.5 1.25
442 3539 2 -0.25
443 3541 2 0
444 3543 2 0
445 3545 2 0
446 3547 2 0
447 3550 3.5 1.25
448 3553 3 -0.25
449 3562 12 7.5
450 3579 21 8.5
451 3602 26 5.5
452 3620 15.5 -7.75
453 3629 4.5 -10
454 3631 -1.5 -6.5
455 3632 0.5 0.5
456 3634 2.5 1.5
457 3636 2 -0.25
458 3638 2 0
459 3640 2 0
460 3643 3.5 1.25
461 3646 3 -0.25
462 3649 3 0
463 3652 3 0
464 3655 3 0
465 3658 3 0
466 3669 15 10
467 3687 21.5 6.75
468 3712 28.5 7
469 3729 13 -11.75
470 3738 5 -8
471 3739 -3 -8
472 3743 5.5 5.75
473 3752 11.5 5.5
474 3765 15 3.75
475 3775 8.5 -4.75
476 3781 4 -4.25
477 3783 0 -4
478 3784 0.5 -0.25
479 3788 5.5 4
480 3798 13 6.75
481 3813 17.5 4.75
482 3827 13.5 -2.5
483 3839 11 -2.25
484 3847 6 -4.5
485 3853 5 -1.5
486 3856 1.5 -3.25
487 3858 1.5 -0.5
488 3859 0.5 -1
489 3860 1 0.25
490 3865 7 5
491 3875 12.5 5.25
492 3890 17.5 5
493 3904 13.5 -2.5
494 3914 8 -4.75
495 3919 2.5 -5.25
496 3922 2 -1.25
497 3927 6 3
498 3934 8 2
499 3946 14.5 5.75
500 3957 10.5 -2.5
501 3965 6.5 -3.5
502 3969 2 -4.25
503 3971 1 -1.5
504 3972 0.5 -0.75
505 3973 1 0.25
506 3975 2.5 1.25
507 3977 2 -0.25
508 3979 2 0
509 3987 11 7.5
510 4002 18.5 7.25
511 4023 24 5.75
512 4041 16.5 -5.25
513 4052 7.5 -8
514 4056 0.5 -7
515 4058 1 -0.75
516 4063 6.5 4.25
517 4072 11 4.25
518 4072 -4.5 -12.25
519 4086 21 19.75
520 4100 14 -3.5
521 4111 9.5 -3.75
522 4119 6.5 -3
523 4126 6.5 -0.5
524 4132 5.5 -1
525 4137 4.5 -1
526 4144 8 2.75
527 4153 10 2
528 4161 7.5 -1.75
529 4165 2 -4.75
530 4167 1 -1.5
531 4168 0.5 -0.75
532 4173 7 5.25
533 4183 12.5 5.25
534 4198 17.5 5
535 4212 13.5 -2.5
536 4224 11 -2.25
537 4232 6 -4.5
538 4238 5 -1.5
539 4242 3 -2
540 4247 5.5 1.75
541 4256 11 4.75
542 4269 15 4
543 4280 10 -3.5
544 4288 6.5 -3.25
545 4293 3.5 -3
546 4300 8 3.25
547 4307 7 -0.5
548 4313 5.5 -1.25
549 4316 1.5 -3.5
550 4320 4.5 2
551 4329 11.5 6
552 4344 18 6.25
553 4357 12 -4
554 4369 11.5 -0.75
555 4378 7.5 -3.5
556 4386 7.5 -0.5
557 4395 9.5 1.5
558 4402 6 -2.75
559 4408 5.5 -0.75
560 4411 1.5 -3.5
561 4413 1.5 -0.5
562 4414 0.5 -1
563 4415 1 0.25
564 4417 2.5 1.25
565 4424 9.5 6
566 4436 14.5 5
567 4453 19.5 5
568 4465 9.5 -7.5
569 4471 3 -6.25
570 4472 -1.5 -4.75
571 4474 2.5 2.5
572 4480 8 4.75
573 4493 16.5 7.75
574 4512 22 5.75
575 4528 14.5 -5.25
576 4538 7 -6.75
577 4542 1 -6
578 4544 1 -1
579 4546 2 0.5
580 4547 0.5 -1.25
581 4549 2.5 1.5
582 4551 2 -0.25
583 4553 2 0
584 4555 2 0
585 4558 3.5 1.25
586 4561 3 -0.25
587 4571 13.5 8.75
588 4588 20.5 7
589 4613 29 8.25
590 4630 13 -12
591 4640 6.5 -6.75
592 4642 -2 -8.25
593 4643 0.5 0.75
594 4645 2.5 1.5
595 4647 2 -0.25
596 4649 2 0
597 4651 2 0
598 4653 2 0
599 4656 3.5 1.25
600 4665 12 7.25
